nm, %T
1100.000000, 82.182200
1099.000000, 82.169600
1098.000000, 82.175600
1097.000000, 82.173400
1096.000000, 82.177400
1095.000000, 82.177200
1094.000000, 82.209500
1093.000000, 82.167600
1092.000000, 82.190800
1091.000000, 82.196300
1090.000000, 82.193900
1089.000000, 82.207600
1088.000000, 82.183000
1087.000000, 82.211400
1086.000000, 82.186300
1085.000000, 82.200900
1084.000000, 82.199600
1083.000000, 82.205000
1082.000000, 82.197000
1081.000000, 82.202400
1080.000000, 82.214900
1079.000000, 82.179000
1078.000000, 82.189100
1077.000000, 82.180600
1076.000000, 82.204200
1075.000000, 82.200500
1074.000000, 82.202400
1073.000000, 82.212600
1072.000000, 82.233300
1071.000000, 82.184700
1070.000000, 82.193900
1069.000000, 82.198200
1068.000000, 82.185600
1067.000000, 82.198100
1066.000000, 82.202200
1065.000000, 82.202800
1064.000000, 82.179300
1063.000000, 82.194300
1062.000000, 82.216300
1061.000000, 82.210900
1060.000000, 82.171000
1059.000000, 82.174200
1058.000000, 82.195100
1057.000000, 82.185700
1056.000000, 82.177400
1055.000000, 82.185100
1054.000000, 82.183900
1053.000000, 82.198200
1052.000000, 82.174200
1051.000000, 82.187100
1050.000000, 82.196600
1049.000000, 82.172200
1048.000000, 82.177600
1047.000000, 82.178300
1046.000000, 82.177300
1045.000000, 82.179800
1044.000000, 82.192900
1043.000000, 82.182700
1042.000000, 82.172300
1041.000000, 82.179100
1040.000000, 82.202300
1039.000000, 82.200300
1038.000000, 82.163400
1037.000000, 82.171300
1036.000000, 82.173200
1035.000000, 82.175600
1034.000000, 82.171400
1033.000000, 82.187100
1032.000000, 82.162700
1031.000000, 82.177500
1030.000000, 82.176700
1029.000000, 82.160100
1028.000000, 82.164600
1027.000000, 82.159000
1026.000000, 82.151900
1025.000000, 82.153500
1024.000000, 82.150600
1023.000000, 82.167200
1022.000000, 82.171000
1021.000000, 82.162500
1020.000000, 82.143000
1019.000000, 82.154200
1018.000000, 82.163600
1017.000000, 82.153300
1016.000000, 82.158900
1015.000000, 82.154800
1014.000000, 82.155300
1013.000000, 82.157600
1012.000000, 82.148100
1011.000000, 82.148200
1010.000000, 82.148100
1009.000000, 82.140300
1008.000000, 82.139300
1007.000000, 82.142700
1006.000000, 82.149100
1005.000000, 82.148300
1004.000000, 82.144200
1003.000000, 82.139000
1002.000000, 82.132700
1001.000000, 82.139400
1000.000000, 82.141900
999.000000, 82.120200
998.000000, 82.118700
997.000000, 82.129300
996.000000, 82.137100
995.000000, 82.119700
994.000000, 82.127100
993.000000, 82.129700
992.000000, 82.114800
991.000000, 82.111400
990.000000, 82.085600
989.000000, 82.098900
988.000000, 82.100700
987.000000, 82.111200
986.000000, 82.101700
985.000000, 82.111200
984.000000, 82.108800
983.000000, 82.101500
982.000000, 82.085100
981.000000, 82.105000
980.000000, 82.114600
979.000000, 82.103300
978.000000, 82.093200
977.000000, 82.094000
976.000000, 82.090800
975.000000, 82.079200
974.000000, 82.078900
973.000000, 82.094900
972.000000, 82.098200
971.000000, 82.073700
970.000000, 82.079900
969.000000, 82.087100
968.000000, 82.076200
967.000000, 82.088500
966.000000, 82.091800
965.000000, 82.071900
964.000000, 82.088000
963.000000, 82.088700
962.000000, 82.079400
961.000000, 82.095100
960.000000, 82.092400
959.000000, 82.082300
958.000000, 82.095000
957.000000, 82.102800
956.000000, 82.081900
955.000000, 82.076200
954.000000, 82.106400
953.000000, 82.113300
952.000000, 82.101200
951.000000, 82.101400
950.000000, 82.084200
949.000000, 82.093000
948.000000, 82.105700
947.000000, 82.095600
946.000000, 82.088500
945.000000, 82.100300
944.000000, 82.107700
943.000000, 82.113500
942.000000, 82.103700
941.000000, 82.096700
940.000000, 82.104400
939.000000, 82.101500
938.000000, 82.122200
937.000000, 82.131300
936.000000, 82.122700
935.000000, 82.111400
934.000000, 82.096000
933.000000, 82.116100
932.000000, 82.127100
931.000000, 82.131100
930.000000, 82.127100
929.000000, 82.121600
928.000000, 82.150100
927.000000, 82.162200
926.000000, 82.157700
925.000000, 82.142200
924.000000, 82.133500
923.000000, 82.155000
922.000000, 82.160500
921.000000, 82.151200
920.000000, 82.171200
919.000000, 82.183500
918.000000, 82.157800
917.000000, 82.162200
916.000000, 82.177700
915.000000, 82.191000
914.000000, 82.201500
913.000000, 82.201800
912.000000, 82.198500
911.000000, 82.202200
910.000000, 82.216500
909.000000, 82.224100
908.000000, 82.231900
907.000000, 82.226200
906.000000, 82.215300
905.000000, 82.220500
904.000000, 82.282000
903.000000, 82.221500
902.000000, 82.086900
901.000000, 82.076300
900.000000, 82.114100
899.000000, 82.148700
898.000000, 82.119200
897.000000, 82.169100
896.000000, 82.253000
895.000000, 82.270300
894.000000, 82.266300
893.000000, 82.285500
892.000000, 82.306300
891.000000, 82.301000
890.000000, 82.291900
889.000000, 82.307100
888.000000, 82.330000
887.000000, 82.327200
886.000000, 82.326600
885.000000, 82.330800
884.000000, 82.333800
883.000000, 82.324400
882.000000, 82.338300
881.000000, 82.359200
880.000000, 82.354200
879.000000, 82.349100
878.000000, 82.359400
877.000000, 82.363700
876.000000, 82.349600
875.000000, 82.343300
874.000000, 82.345400
873.000000, 82.333100
872.000000, 82.353100
871.000000, 82.371700
870.000000, 82.362200
869.000000, 82.343500
868.000000, 82.341300
867.000000, 82.350300
866.000000, 82.367500
865.000000, 82.354300
864.000000, 82.361400
863.000000, 82.390900
862.000000, 82.371300
861.000000, 82.364100
860.000000, 91.024100
859.000000, 95.717900
858.000000, 95.772500
857.000000, 95.754400
856.000000, 95.741500
855.000000, 95.758200
854.000000, 95.816600
853.000000, 95.795500
852.000000, 95.771300
851.000000, 95.829000
850.000000, 95.826300
849.000000, 95.866300
848.000000, 95.878400
847.000000, 95.918300
846.000000, 95.975900
845.000000, 95.991000
844.000000, 96.058100
843.000000, 96.093000
842.000000, 96.108400
841.000000, 96.165000
840.000000, 96.192700
839.000000, 96.254900
838.000000, 96.272100
837.000000, 96.314700
836.000000, 96.390600
835.000000, 96.428700
834.000000, 96.429700
833.000000, 96.453800
832.000000, 96.492700
831.000000, 96.539400
830.000000, 96.578100
829.000000, 96.616300
828.000000, 96.588500
827.000000, 96.613100
826.000000, 96.653000
825.000000, 96.680400
824.000000, 96.676900
823.000000, 96.679500
822.000000, 96.677400
821.000000, 96.709100
820.000000, 96.688500
819.000000, 96.719200
818.000000, 96.724200
817.000000, 96.716900
816.000000, 96.704200
815.000000, 96.686100
814.000000, 96.701400
813.000000, 96.704000
812.000000, 96.691000
811.000000, 96.697900
810.000000, 96.657300
809.000000, 96.590200
808.000000, 96.650300
807.000000, 96.613500
806.000000, 96.579200
805.000000, 96.560100
804.000000, 96.566000
803.000000, 96.535900
802.000000, 96.510700
801.000000, 96.519900
800.000000, 96.508100
799.000000, 96.486100
798.000000, 96.460700
797.000000, 96.458400
796.000000, 96.457000
795.000000, 96.402300
794.000000, 96.363500
793.000000, 96.373800
792.000000, 96.355100
791.000000, 96.347900
790.000000, 96.321000
789.000000, 96.265700
788.000000, 96.272100
787.000000, 96.254100
786.000000, 96.246700
785.000000, 96.215900
784.000000, 96.176000
783.000000, 96.142100
782.000000, 96.134200
781.000000, 96.130600
780.000000, 96.101500
779.000000, 96.096600
778.000000, 96.057100
777.000000, 96.018800
776.000000, 95.994100
775.000000, 95.997900
774.000000, 95.980000
773.000000, 95.950900
772.000000, 95.928800
771.000000, 95.905400
770.000000, 95.875200
769.000000, 95.878100
768.000000, 95.849800
767.000000, 95.821100
766.000000, 95.808600
765.000000, 95.764200
764.000000, 95.745700
763.000000, 95.732000
762.000000, 95.716000
761.000000, 95.694200
760.000000, 95.669900
759.000000, 95.645700
758.000000, 95.612700
757.000000, 95.595300
756.000000, 95.577800
755.000000, 95.559800
754.000000, 95.536800
753.000000, 95.483600
752.000000, 95.463100
751.000000, 95.466800
750.000000, 95.443200
749.000000, 95.440100
748.000000, 95.426900
747.000000, 95.370000
746.000000, 95.343200
745.000000, 95.351600
744.000000, 95.331800
743.000000, 95.305800
742.000000, 95.285800
741.000000, 95.252600
740.000000, 95.251300
739.000000, 95.227100
738.000000, 95.215800
737.000000, 95.173200
736.000000, 95.189800
735.000000, 95.140900
734.000000, 95.114200
733.000000, 95.127100
732.000000, 95.091600
731.000000, 95.100700
730.000000, 95.083900
729.000000, 95.018400
728.000000, 95.006000
727.000000, 95.000200
726.000000, 95.004200
725.000000, 94.966600
724.000000, 94.948000
723.000000, 94.898400
722.000000, 94.873600
721.000000, 94.885400
720.000000, 94.883000
719.000000, 94.856500
718.000000, 94.841800
717.000000, 94.800500
716.000000, 94.805300
715.000000, 94.766500
714.000000, 94.781900
713.000000, 94.760500
712.000000, 94.755400
711.000000, 94.717800
710.000000, 94.700900
709.000000, 94.665800
708.000000, 94.690400
707.000000, 94.671800
706.000000, 94.655800
705.000000, 94.604800
704.000000, 94.611000
703.000000, 94.585000
702.000000, 94.593900
701.000000, 94.578700
700.000000, 94.581200
699.000000, 94.521200
698.000000, 94.517100
697.000000, 94.486200
696.000000, 94.487000
695.000000, 94.490700
694.000000, 94.476000
693.000000, 94.427800
692.000000, 94.432600
691.000000, 94.428600
690.000000, 94.408400
689.000000, 94.390800
688.000000, 94.408500
687.000000, 94.337900
686.000000, 94.340200
685.000000, 94.338700
684.000000, 94.329300
683.000000, 94.321100
682.000000, 94.309300
681.000000, 94.263100
680.000000, 94.262200
679.000000, 94.266700
678.000000, 94.270300
677.000000, 94.249400
676.000000, 94.234400
675.000000, 94.192700
674.000000, 94.183300
673.000000, 94.177600
672.000000, 94.178700
671.000000, 94.176500
670.000000, 94.151800
669.000000, 94.113800
668.000000, 94.105100
667.000000, 94.126600
666.000000, 94.122800
665.000000, 94.106900
664.000000, 94.083800
663.000000, 94.029500
662.000000, 94.038900
661.000000, 94.043500
660.000000, 94.047600
659.000000, 94.031400
658.000000, 94.007600
657.000000, 93.971500
656.000000, 93.973700
655.000000, 93.973500
654.000000, 93.957900
653.000000, 93.935100
652.000000, 93.926800
651.000000, 93.896300
650.000000, 93.905400
649.000000, 93.908700
648.000000, 93.916900
647.000000, 93.899600
646.000000, 93.870300
645.000000, 93.823700
644.000000, 93.818400
643.000000, 93.840300
642.000000, 93.838100
641.000000, 93.830900
640.000000, 93.810700
639.000000, 93.762000
638.000000, 93.772900
637.000000, 93.770200
636.000000, 93.778700
635.000000, 93.768700
634.000000, 93.746700
633.000000, 93.696100
632.000000, 93.696700
631.000000, 93.720800
630.000000, 93.713100
629.000000, 93.711500
628.000000, 93.685200
627.000000, 93.662300
626.000000, 93.673000
625.000000, 93.682800
624.000000, 93.673600
623.000000, 93.655900
622.000000, 93.641500
621.000000, 93.617100
620.000000, 93.614900
619.000000, 93.619300
618.000000, 93.603400
617.000000, 93.612100
616.000000, 93.598700
615.000000, 93.576900
614.000000, 93.581300
613.000000, 93.592100
612.000000, 93.585800
611.000000, 93.576500
610.000000, 93.567300
609.000000, 93.534900
608.000000, 93.537000
607.000000, 93.572000
606.000000, 93.560100
605.000000, 93.554600
604.000000, 93.527200
603.000000, 93.494600
602.000000, 93.490500
601.000000, 93.511500
600.000000, 93.502500
599.000000, 93.500300
598.000000, 93.489400
597.000000, 93.472700
596.000000, 93.477100
595.000000, 93.475100
594.000000, 93.468000
593.000000, 93.446000
592.000000, 93.433800
591.000000, 93.412800
590.000000, 93.426300
589.000000, 93.437500
588.000000, 93.427500
587.000000, 93.408300
586.000000, 93.390600
585.000000, 93.369100
584.000000, 93.371600
583.000000, 93.367800
582.000000, 93.354800
581.000000, 93.341300
580.000000, 93.322300
579.000000, 93.304100
578.000000, 93.304900
577.000000, 93.322500
576.000000, 93.307100
575.000000, 93.295700
574.000000, 93.278300
573.000000, 93.239900
572.000000, 93.250400
571.000000, 93.269400
570.000000, 93.256700
569.000000, 93.244900
568.000000, 93.213800
567.000000, 93.196400
566.000000, 93.207700
565.000000, 93.214300
564.000000, 93.197600
563.000000, 93.175500
562.000000, 93.158600
561.000000, 93.140100
560.000000, 93.168200
559.000000, 93.170900
558.000000, 93.133200
557.000000, 93.134700
556.000000, 93.145300
555.000000, 93.139300
554.000000, 93.128500
553.000000, 93.104600
552.000000, 93.080200
551.000000, 93.093800
550.000000, 93.100900
549.000000, 93.090600
548.000000, 93.083100
547.000000, 93.058400
546.000000, 93.017200
545.000000, 93.015100
544.000000, 93.036500
543.000000, 93.028100
542.000000, 93.011800
541.000000, 92.983900
540.000000, 92.968200
539.000000, 92.971100
538.000000, 92.971700
537.000000, 92.966200
536.000000, 92.946600
535.000000, 92.915200
534.000000, 92.887100
533.000000, 92.874300
532.000000, 92.880100
531.000000, 92.883700
530.000000, 92.877100
529.000000, 92.840900
528.000000, 92.790900
527.000000, 92.792000
526.000000, 92.793300
525.000000, 92.780900
524.000000, 92.758100
523.000000, 92.708300
522.000000, 92.674200
521.000000, 92.673300
520.000000, 92.666600
519.000000, 92.647100
518.000000, 92.619100
517.000000, 92.572800
516.000000, 92.531200
515.000000, 92.534700
514.000000, 92.540800
513.000000, 92.521300
512.000000, 92.500600
511.000000, 92.470000
510.000000, 92.452600
509.000000, 92.459600
508.000000, 92.462400
507.000000, 92.453700
506.000000, 92.438900
505.000000, 92.414100
504.000000, 92.397100
503.000000, 92.416900
502.000000, 92.430600
501.000000, 92.426600
500.000000, 92.427500
499.000000, 92.404900
498.000000, 92.398400
497.000000, 92.409900
496.000000, 92.421600
495.000000, 92.415000
494.000000, 92.408200
493.000000, 92.385600
492.000000, 92.374000
491.000000, 92.393700
490.000000, 92.407300
489.000000, 92.412800
488.000000, 92.401400
487.000000, 92.376200
486.000000, 92.368800
485.000000, 92.373600
484.000000, 92.387100
483.000000, 92.390900
482.000000, 92.366000
481.000000, 92.326700
480.000000, 92.305500
479.000000, 92.294200
478.000000, 92.276800
477.000000, 92.248800
476.000000, 92.217800
475.000000, 92.179800
474.000000, 92.132800
473.000000, 92.130600
472.000000, 92.118900
471.000000, 92.083400
470.000000, 92.069700
469.000000, 92.014500
468.000000, 91.991300
467.000000, 91.988800
466.000000, 91.977900
465.000000, 91.951700
464.000000, 91.932600
463.000000, 91.884400
462.000000, 91.865300
461.000000, 91.877100
460.000000, 91.873400
459.000000, 91.851300
458.000000, 91.829800
457.000000, 91.775800
456.000000, 91.759300
455.000000, 91.771300
454.000000, 91.758400
453.000000, 91.735300
452.000000, 91.715600
451.000000, 91.672400
450.000000, 91.673400
449.000000, 91.648500
448.000000, 91.632300
447.000000, 91.611800
446.000000, 91.581300
445.000000, 91.540200
444.000000, 91.513300
443.000000, 91.502900
442.000000, 91.469200
441.000000, 91.450000
440.000000, 91.431600
439.000000, 91.381700
438.000000, 91.354700
437.000000, 91.337600
436.000000, 91.306800
435.000000, 91.284400
434.000000, 91.262600
433.000000, 91.190800
432.000000, 91.161700
431.000000, 91.163300
430.000000, 91.143700
429.000000, 91.123200
428.000000, 91.090200
427.000000, 91.039200
426.000000, 91.007700
425.000000, 90.991200
424.000000, 90.958500
423.000000, 90.937000
422.000000, 90.916000
421.000000, 90.852500
420.000000, 90.857600
419.000000, 90.814200
418.000000, 90.789500
417.000000, 90.764000
416.000000, 90.733900
415.000000, 90.677600
414.000000, 90.639700
413.000000, 90.637200
412.000000, 90.616900
411.000000, 90.572800
410.000000, 90.558500
409.000000, 90.484100
408.000000, 90.460200
407.000000, 90.457200
406.000000, 90.421700
405.000000, 90.383900
404.000000, 90.360200
403.000000, 90.311400
402.000000, 90.287600
401.000000, 90.267800
400.000000, 90.249700
399.000000, 90.217100
398.000000, 90.178700
397.000000, 90.125900
396.000000, 90.085000
395.000000, 90.101100
394.000000, 90.040800
393.000000, 90.030600
392.000000, 89.996500
391.000000, 89.913600
390.000000, 89.908700
389.000000, 89.880900
388.000000, 89.845700
387.000000, 89.806500
386.000000, 89.794700
385.000000, 89.725200
384.000000, 89.697200
383.000000, 89.695300
382.000000, 89.651200
381.000000, 89.627600
380.000000, 89.617700
379.000000, 89.557700
378.000000, 89.689300
377.000000, 89.857100
376.000000, 89.784300
375.000000, 89.685900
374.000000, 89.658800
373.000000, 89.582600
372.000000, 89.557300
371.000000, 89.527400
370.000000, 89.452800
369.000000, 89.381500
368.000000, 89.366500
367.000000, 89.358800
366.000000, 89.309700
365.000000, 89.264600
364.000000, 89.197600
363.000000, 89.195600
362.000000, 89.177600
361.000000, 89.151100
360.000000, 89.106600
359.000000, 89.073300
358.000000, 89.016600
357.000000, 88.987800
356.000000, 88.980300
355.000000, 88.962600
354.000000, 88.914000
353.000000, 88.896200
352.000000, 88.851400
351.000000, 88.812600
350.000000, 88.833900
